#Wavelength Intensity
3765.270 2045
3850.581 3370
3868.528 2684
3891.979 1442
3994.792 3487
4013.857 2537
4033.809 3329
4044.418 16221
4052.921 10333
4072.385 21838
4103.912 9710
4131.724 25819
4158.591 66759
4181.884 11759
4191.029 24660
4199.889 100000
4228.158 11031
4237.220 7639
4259.362 48698
4300.101 21403
4309.239 6060
4333.561 38308
4348.064 38962
4370.753 27206
4400.986 13932
4448.879 4651
4481.811 19493
4510.733 25671
4545.052 58761
4563.743 1140
4579.350 29023
4589.898 36982
4609.567 60986
4628.441 1740
4637.233 3290
4657.901 45238
4702.316 5150
4726.868 37880
4764.865 84724
4806.021 30171
4847.810 13793
4879.864 57234
4933.209 4771
4965.080 24259
5017.163 12590
5062.037 8034
5162.285 9582
5187.746 11782
5495.874 18262
5506.113 4346
5558.702 18239
5572.541 7820
5606.733 21275
5650.704 9440
5739.520 5697
5834.263 4064
5860.310 4778
5888.584 13812
5912.085 23349
5928.813 9707
6032.127 36256
6043.223 14727
6059.373 6677
6114.923 9941
6145.441 3987
6296.872 3543
6307.657 3813
6384.717 5693
6416.307 22457
6466.553 2089
